Wavelength (nm) - Plot 0,Intensity (AU) - Plot 0
1,304.34
2,303.9
3,304.055
4,305.365
5,304.745
6,303.49
7,305.06
8,304.935
9,305.08
10,303.835
11,305.595
12,304.545
13,303.89
14,303.855
15,304.43
16,303.62
17,305.085
18,304.02
19,304.73
20,305.12
21,304.745
22,304.975
23,305.28
24,304.995
25,305.02
26,304.88
27,305.645
28,306.305
29,306.95
30,308.775
31,312.465
32,313.095
33,316.205
34,317.475
35,320.5
36,322.52
37,325.51
38,328.015
39,331.805
40,336.6
41,340.53
42,344.785
43,351.18
44,357.455
45,363.64
46,371.015
47,378.215
48,385.63
49,394.4
50,400.735
51,407.7
52,415.34
53,422.015
54,429.685
55,434.925
56,439.625
57,442.78
58,445.765
59,450.18
60,451.115
61,454.155
62,457.415
63,458.28
64,460.835
65,464.265
66,466.37
67,467.41
68,469.115
69,471.305
70,474.37
71,476.795
72,478.06
73,481.11
74,481.885
75,483.96
76,486.15
77,490.405
78,492.72
79,495.65
80,498.805
81,501.26
82,506.415
83,510.32
84,513.8
85,516.51
86,520.9
87,524.355
88,527.665
89,530.37
90,535.22
91,538.78
92,540.775
93,545.86
94,548.975
95,552.61
96,553.99
97,556.975
98,560.52
99,561.64
100,563.14
101,565.385
102,566.905
103,567.085
104,566.575
105,568.8
106,569.6
107,570.925
108,571.925
109,573.075
110,572.615
111,574.88
112,576.575
113,576.88
114,579.055
115,581.985
116,580.8
117,579.19
118,578.61
119,576.65
120,572.905
121,572.825
122,571.665
123,571.52
124,571.165
125,572.05
126,572.56
127,572.595
128,572.945
129,574.135
130,574.685
131,576.55
132,577.23
133,578.69
134,578.845
135,580.33
136,581.365
137,583.6
138,582.89
139,585.18
140,584.365
141,586.625
142,585.215
143,587.93
144,588.385
145,588.8
146,589.645
147,590.73
148,590.73
149,591.665
150,590.61
151,592.085
152,591.475
153,594.255
154,593.44
155,595.365
156,595.275
157,595.925
158,596.29
159,596.845
160,597.215
161,600.225
162,597.55
163,598.76
164,600.36
165,602.755
166,602.78
167,608.005
168,612.32
169,616.47
170,620.945
171,625.275
172,630.565
173,635.645
174,640.76
175,644.555
176,648.885
177,653.445
178,655.4
179,655.6
180,650.04
181,641.025
182,633.255
183,625.015
184,621.025
185,617.67
186,615.06
187,610.295
188,605.74
189,603.605
190,600.98
191,599.155
192,600.16
193,599.19
194,595.485
195,594.355
196,593.695
197,593.985
198,593.305
199,594.47
200,596.06
201,597.335
202,596.28
203,597.585
204,600.01
205,600.825
206,600.57
207,601.45
208,599.335
209,598.665
210,598.215
211,596.17
212,596.06
213,595.435
214,594.9
215,594.05
216,593.055
217,593.525
218,591.715
219,593.78
220,591.785
221,593.49
222,592.965
223,593.07
224,593.44
225,593.125
226,592.23
227,593.68
228,592.125
229,594.055
230,594.085
231,594.245
232,594.48
233,597.155
234,597.645
235,599.685
236,598.875
237,599.74
238,600.155
239,600.57
240,600.965
241,603.75
242,602.325
243,603.445
244,603.465
245,605.13
246,606.02
247,606.28
248,608.325
249,608.455
250,607.77
251,611.11
252,609.97
253,612.045
254,613.73
255,615.56
256,616.825
257,618.52
258,618.98
259,618.715
260,618.015
261,619.465
262,614.575
263,614.205
264,612.12
265,611.77
266,609.825
267,610.68
268,612.05
269,609.12
270,608.805
271,609.39
272,609.38
273,610.445
274,609.105
275,611.535
276,613.42
277,614.885
278,617.73
279,623.915
280,620.93
281,618.535
282,611.62
283,610.275
284,609.375
285,610.46
286,611.11
287,615.51
288,619.155
289,619.545
290,618.57
291,620.185
292,619.365
293,621.59
294,619.4
295,618.635
296,617.22
297,617.635
298,617.295
299,615.87
300,614.5
301,612.615
302,608.7
303,610.19
304,607.365
305,605.885
306,606.16
307,605.085
308,604
309,604.21
310,605.04
311,604.875
312,601.89
313,604
314,603.07
315,604.94
316,603.68
317,604.375
318,604.145
319,605.135
320,604.055
321,606.125
322,605.3
323,606.325
324,607.98
325,611.205
326,610.885
327,612.255
328,611.13
329,612.665
330,610.12
331,609.575
332,607.785
333,606.53
334,606.515
335,607.395
336,606.48
337,608.54
338,606.62
339,610.095
340,609.295
341,609.935
342,611.515
343,611.39
344,610.935
345,612.98
346,611.225
347,611.615
348,611.05
349,611.01
350,610.1
351,612.545
352,612.875
353,615.495
354,614.295
355,614.475
356,615.945
357,617.785
358,618.49
359,617.85
360,618.62
361,619.055
362,615.605
363,617.08
364,617.32
365,616.765
366,618.48
367,618.52
368,619.825
369,624.005
370,627.065
371,631.135
372,635.605
373,638.25
374,636.6
375,633.51
376,629.85
377,626.285
378,624.47
379,623.33
380,622.8
381,623.18
382,624.115
383,625.605
384,625.985
385,626.085
386,624.82
387,626.1
388,622.725
389,624.335
390,624.35
391,623.14
392,623.155
393,622.68
394,620.935
395,623.165
396,622.26
397,621.67
398,622.705
399,622.445
400,621.85
401,622.42
402,622.595
403,622.64
404,621.375
405,622.2
406,622.175
407,624.775
408,625.515
409,628.355
410,630.25
411,636.075
412,640.65
413,646.715
414,651.09
415,653.855
416,655.85
417,658.195
418,658.02
419,658.595
420,655.39
421,654.5
422,649.59
423,646.195
424,643.745
425,639.875
426,638.465
427,637.845
428,636.7
429,635.595
430,636.82
431,635.14
432,635.605
433,635.125
434,633.96
435,631.255
436,628.755
437,625.985
438,624.91
439,625.375
440,623.945
441,623.62
442,622.74
443,624.85
444,622.69
445,625.015
446,622.89
447,623.83
448,623.215
449,623.3
450,621.415
451,622.89
452,620.925
453,620.89
454,621.955
455,620.645
456,622.64
457,622.795
458,620.255
459,623.035
460,622.815
461,622.155
462,622.985
463,623.895
464,625.125
465,625.31
466,624.94
467,624.585
468,624.765
469,627.435
470,628.09
471,628.075
472,629.19
473,629.895
474,630.935
475,634.265
476,636.7
477,638.52
478,637.315
479,634.89
480,631.87
481,630.1
482,629.025
483,629.52
484,629.36
485,629.615
486,629.2
487,629.84
488,631
489,634.01
490,635.415
491,639.855
492,645.745
493,651.405
494,652.875
495,650.77
496,646.01
497,643.56
498,640.015
499,640.065
500,638.33
501,636.45
502,635.07
503,635.375
504,633.655
505,633.55
506,633.91
507,634.2
508,635.23
509,634.59
510,634.47
511,634.1
512,634.465
513,634.2
514,633.225
515,634.18
516,633.315
517,635.265
518,635.865
519,637.38
520,639.505
521,642.72
522,645.695
523,649.35
524,653.85
525,659.075
526,659.45
527,665.015
528,664.865
529,668.05
530,670.4
531,675.41
532,680.295
533,683.01
534,680.455
535,674.305
536,662.845
537,654.07
538,646.995
539,641.62
540,639.565
541,638.37
542,636.525
543,636.155
544,634.705
545,633.71
546,634.955
547,634.55
548,633.01
549,633.685
550,634.545
551,634.98
552,633.79
553,634.905
554,634.745
555,635.65
556,636.355
557,637.82
558,637
559,638.67
560,638.605
561,640.305
562,638.745
563,637.765
564,637.985
565,637.35
566,636.48
567,637.375
568,636.825
569,636.975
570,634.66
571,634.65
572,633.63
573,634.85
574,633.895
575,634.045
576,633.265
577,631.92
578,633.67
579,634.835
580,633.365
581,635.01
582,636.05
583,636.115
584,636.605
585,636.52
586,636.72
587,638.49
588,638.35
589,638.87
590,639.985
591,640.11
592,640.165
593,640.52
594,639.21
595,639.36
596,639.065
597,637.625
598,637.8
599,638.32
600,635.65
601,637.14
602,638.425
603,635.89
604,635.045
605,635.235
606,635.045
607,635.5
608,634.8
609,635.58
610,634.735
611,636.68
612,635.33
613,636.14
614,637.41
615,636.67
616,638.135
617,639.99
618,638.435
619,639.19
620,641.23
621,639.555
622,639.765
623,639.885
624,640.085
625,640.3
626,639.56
627,639.905
628,639
629,639.98
630,639.085
631,639.21
632,637.775
633,638.76
634,636.105
635,637.34
636,633.795
637,633.29
638,633.4
639,632.07
640,632.135
641,631.725
642,632.89
643,634.385
644,632.41
645,634.965
646,634.31
647,635.19
648,636.36
649,638.69
650,636.775
651,637.94
652,638.445
653,639.57
654,638.42
655,638.93
656,638.755
657,640.055
658,638.51
659,639.815
660,637.315
661,638.79
662,637.095
663,637.65
664,637.1
665,634.83
666,634.875
667,635.385
668,633.92
669,633.04
670,633.235
671,634.375
672,631.8
673,633.09
674,633.4
675,633.69
676,632.735
677,635.2
678,634.325
679,634.74
680,636.35
681,636.875
682,637.12
683,639.415
684,636.61
685,638.855
686,638.05
687,638.75
688,636.885
689,636.645
690,636.61
691,634.935
692,633.945
693,633.74
694,632.775
695,631.81
696,627.775
697,630.555
698,629.525
699,629.455
700,626.18
701,626.695
702,626.08
703,625.26
704,626.74
705,627.58
706,628.14
707,628.83
708,627.59
709,630.24
710,630.315
711,631.895
712,631.45
713,632.29
714,632.54
715,633.425
716,634.91
717,635.895
718,635.62
719,635.345
720,634.82
721,635.36
722,633.845
723,634.425
724,634.15
725,633.31
726,632.565
727,632.64
728,631.33
729,630.68
730,630.56
731,629.71
732,629.335
733,628.675
734,627.66
735,627.985
736,628.23
737,627.675
738,629.775
739,630.095
740,628.31
741,628.655
742,631.555
743,631.78
744,632.535
745,633.635
746,633.775
747,636.975
748,635.71
749,635.2
750,636.095
751,634.625
752,634.315
753,633.34
754,631.92
755,633.1
756,631.755
757,630.23
758,630.325
759,629.155
760,627.265
761,625.72
762,624.305
763,624.02
764,623.535
765,622.445
766,620.745
767,620.02
768,619.19
769,618.425
770,616.795
771,615.91
772,615.415
773,616.905
774,615.36
775,615.815
776,616.575
777,617.66
778,618.94
779,618.63
780,621.025
781,618.355
782,620.43
783,621.86
784,622.295
785,624
786,623.765
787,624.3
788,625.7
789,625.26
790,625.935
791,624.09
792,623.3
793,624.795
794,623.45
795,622.465
796,620.965
797,620.91
798,618.58
799,618.79
800,617.43
801,616.625
802,612.435
803,613.715
804,613.14
805,613.21
806,610.185
807,611.305
808,610.785
809,609.29
810,609.5
811,611.44
812,611.46
813,611.48
814,610.92
815,613.69
816,614.535
817,613.745
818,614.775
819,617.315
820,618.48
821,616.605
822,617.92
823,615.2
824,615.575
825,616.785
826,616.215
827,615.05
828,615.42
829,614.115
830,613.93
831,611.945
832,611.93
833,610.65
834,610.82
835,610.145
836,610.135
837,610.105
838,609.62
839,609.83
840,610.055
841,610.215
842,610.265
843,612.005
844,612.06
845,612.22
846,611.38
847,610.465
848,610.12
849,608.495
850,606.375
851,607.69
852,607.3
853,607.285
854,608.605
855,607.95
856,607.54
857,609.41
858,610.175
859,610.645
860,611.185
861,609.59
862,610.49
863,611.005
864,609.395
865,609.775
866,609.05
867,609.76
868,606.53
869,606.885
870,606.855
871,604.095
872,602.385
873,601.975
874,599.605
875,600.205
876,597.18
877,596.945
878,595.515
879,592.985
880,592.695
881,590.62
882,590.06
883,588.79
884,589.075
885,589.41
886,588.255
887,588.295
888,589.01
889,589.88
890,590.495
891,590.78
892,592.315
893,593.28
894,594.13
895,594.875
896,594.995
897,595.08
898,595.465
899,596.735
900,596.59
901,595.72
902,595.02
903,595.355
904,596.085
905,596.315
906,593.68
907,594.96
908,591.51
909,591.43
910,589.965
911,588.005
912,584.88
913,585.535
914,583.22
915,583.06
916,582.3
917,581.65
918,580.565
919,581.18
920,580.8
921,581.185
922,581.8
923,581.77
924,582.38
925,583.33
926,585.12
927,585.7
928,585.78
929,587.465
930,587.23
931,588.995
932,589.245
933,590.145
934,590.61
935,592.465
936,590.28
937,590.285
938,592.715
939,592.545
940,591.555
941,593.26
942,590.59
943,591.35
944,590.515
945,590.315
946,589.82
947,587.62
948,587.22
949,586.02
950,583.875
951,586.5
952,583.455
953,582.4
954,581.855
955,582.495
956,580.37
957,579.355
958,578.955
959,578.08
960,577.775
961,577.535
962,577.555
963,577.515
964,577.305
965,577.05
966,577.915
967,577.155
968,578.535
969,579.74
970,580.735
971,583.13
972,584.18
973,587.365
974,590.38
975,593.9
976,596.66
977,602.79
978,606.035
979,611.65
980,617.36
981,622.92
982,627.84
983,633.85
984,638.46
985,644.895
986,648.69
987,652.585
988,656.94
989,658.915
990,660.96
991,659.975
992,658.04
993,655.745
994,653.61
995,650.775
996,645.675
997,642.915
998,640.04
999,638.835
1000,634.325
1001,633.26
1002,630.295
1003,625.175
1004,624.62
1005,624.49
1006,622.795
1007,621.715
1008,619.115
1009,616.68
1010,612.575
1011,610.56
1012,607.54
1013,604.5
1014,600
1015,599.025
1016,596.52
1017,595.145
1018,592.05
1019,592.54
1020,590.305
1021,588.335
1022,587.845
1023,586.74
1024,586.715
1025,587.32
1026,585.015
1027,586.225
1028,585.46
1029,584.355
1030,582.145
1031,582.405
1032,577.805
1033,577.02
1034,573.96
1035,570.725
1036,567.545
1037,565.195
1038,560.355
1039,558.525
1040,556.095
1041,554.855
1042,550.625
1043,549.745
1044,548.125
1045,546.41
1046,544.295
1047,545.025
1048,542.98
1049,544.49
1050,542.035
1051,544.2
1052,542.695
1053,544.94
1054,546.23
1055,545.735
1056,546.29
1057,548.235
1058,548.205
1059,549.935
1060,551.1
1061,552.355
1062,553.5
1063,553.605
1064,554.51
1065,556.46
1066,554.26
1067,554.93
1068,554.185
1069,555.15
1070,553.29
1071,552.415
1072,551.255
1073,551.59
1074,548.875
1075,547.63
1076,546.68
1077,544.205
1078,544.17
1079,541.56
1080,540.75
1081,539.205
1082,538.085
1083,536.525
1084,535.265
1085,533.26
1086,532.85
1087,531.675
1088,529.12
1089,528.96
1090,526.975
1091,527.325
1092,525.305
1093,526.62
1094,524.86
1095,526.065
1096,524.49
1097,524.77
1098,523.79
1099,524.71
1100,525.37
1101,523.78
1102,522.35
1103,523.67
1104,523.095
1105,521.735
1106,522.69
1107,524.285
1108,524.115
1109,525.005
1110,525.355
1111,527.61
1112,526.495
1113,528.405
1114,529.275
1115,529.075
1116,529.495
1117,531.96
1118,532.325
1119,532.19
1120,530.65
1121,531.15
1122,530.685
1123,529.37
1124,527.6
1125,526.385
1126,525.34
1127,524.625
1128,521.47
1129,522.075
1130,518.115
1131,517.63
1132,515.185
1133,514.8
1134,513.69
1135,513.71
1136,512.32
1137,511.62
1138,509.145
1139,509.425
1140,509.53
1141,508.545
1142,511.015
1143,510.9
1144,510.34
1145,512.33
1146,510.415
1147,514.865
1148,515.555
1149,517.02
1150,517.595
1151,518.365
1152,519.3
1153,519.59
1154,519.1
1155,520.125
1156,520.37
1157,519.915
1158,520.365
1159,520.07
1160,517.64
1161,517.765
1162,516.195
1163,515.94
1164,515.555
1165,514.16
1166,512.97
1167,511.595
1168,508.885
1169,508.245
1170,505.935
1171,505.675
1172,503.525
1173,503.52
1174,502.885
1175,500.775
1176,499.305
1177,498.145
1178,496.135
1179,496.18
1180,494.235
1181,493.095
1182,493.51
1183,493.575
1184,492.585
1185,495.34
1186,495.285
1187,497.28
1188,497.58
1189,499.435
1190,499.695
1191,502.03
1192,503.855
1193,504.135
1194,506.06
1195,507.3
1196,507.735
1197,509.43
1198,509.175
1199,508.885
1200,508.515
1201,510.06
1202,508.06
1203,508.355
1204,507.365
1205,506.615
1206,505.855
1207,503.095
1208,500.84
1209,500.445
1210,498.685
1211,498.16
1212,495.89
1213,493.575
1214,492.29
1215,491.08
1216,488.9
1217,487.17
1218,486.46
1219,485.725
1220,485.32
1221,484.65
1222,485.26
1223,486.725
1224,486.41
1225,487.005
1226,487.795
1227,489.97
1228,490.895
1229,492.115
1230,491.085
1231,494.255
1232,495.12
1233,495.1
1234,495.755
1235,497.63
1236,496.705
1237,497.42
1238,497.57
1239,497.59
1240,496.075
1241,496.295
1242,495.415
1243,493.305
1244,493.1
1245,491.46
1246,490.235
1247,489.515
1248,487.605
1249,486.575
1250,483.625
1251,483.685
1252,482.865
1253,481.445
1254,480.01
1255,477.425
1256,478.055
1257,476.015
1258,474.86
1259,474.205
1260,474.76
1261,472.92
1262,472.575
1263,473.515
1264,472.6
1265,472.95
1266,474.1
1267,475.33
1268,474.85
1269,474.34
1270,477.385
1271,477.16
1272,477.66
1273,480.125
1274,480.58
1275,480.75
1276,482.675
1277,484.435
1278,485.195
1279,485.08
1280,485.805
1281,486.085
1282,484.56
1283,485.955
1284,484.815
1285,483.905
1286,482.075
1287,482.21
1288,480.165
1289,479.14
1290,476.63
1291,476.915
1292,474.8
1293,474.46
1294,471.93
1295,470.735
1296,468.035
1297,468.04
1298,466.205
1299,465.6
1300,464.76
1301,465.225
1302,465.095
1303,464.8
1304,464.16
1305,466.545
1306,465.85
1307,465.91
1308,466.28
1309,467.055
1310,468.15
1311,469.365
1312,469.595
1313,470.645
1314,470.305
1315,472.455
1316,472.02
1317,472.59
1318,473.255
1319,472.95
1320,472.63
1321,471.505
1322,470.53
1323,470.975
1324,469.495
1325,468.545
1326,467.105
1327,466.315
1328,463.695
1329,463.055
1330,460.055
1331,458.72
1332,457.135
1333,456.115
1334,455.88
1335,453.495
1336,453.49
1337,452.55
1338,450.265
1339,451.975
1340,451.87
1341,453.26
1342,452.915
1343,453.92
1344,456.085
1345,457.995
1346,458.32
1347,460.02
1348,461.57
1349,462.915
1350,463.58
1351,464.43
1352,463.565
1353,464.615
1354,465.39
1355,465.615
1356,464.58
1357,463.195
1358,463.045
1359,462.05
1360,459.975
1361,458.305
1362,457.02
1363,457.17
1364,452.975
1365,453.03
1366,450.565
1367,448.94
1368,447.38
1369,446.46
1370,444.52
1371,444.4
1372,444.23
1373,443.48
1374,444.92
1375,445.035
1376,444.205
1377,444.105
1378,444.555
1379,444.155
1380,443.64
1381,444.675
1382,444.53
1383,445.19
1384,445.54
1385,446.775
1386,448.62
1387,449.135
1388,448.615
1389,449.6
1390,450.43
1391,452.48
1392,452.06
1393,452.525
1394,452.045
1395,452.015
1396,452.33
1397,450.86
1398,449.7
1399,449.36
1400,448.4
1401,447.44
1402,445.535
1403,443.815
1404,443.545
1405,441.41
1406,438.985
1407,438.58
1408,436.88
1409,434.565
1410,433
1411,432.155
1412,431.065
1413,430.16
1414,430.045
1415,428.695
1416,428.985
1417,430.035
1418,430.33
1419,431.375
1420,431.945
1421,434.745
1422,436.135
1423,437.35
1424,438.495
1425,441.205
1426,440.73
1427,444.695
1428,443.54
1429,445.925
1430,444.82
1431,444.75
1432,444.875
1433,446.04
1434,443.73
1435,444.395
1436,441.955
1437,441.48
1438,440.27
1439,438.49
1440,437.67
1441,436.625
1442,433.245
1443,432.265
1444,431.3
1445,430.015
1446,428.69
1447,427.04
1448,424.85
1449,424.105
1450,422.57
1451,421.65
1452,420.235
1453,420.45
1454,418.62
1455,418.475
1456,417.705
1457,418.255
1458,416.68
1459,418.145
1460,418.78
1461,420.17
1462,420.1
1463,422.035
1464,423.06
1465,423.975
1466,425.375
1467,428.135
1468,428.365
1469,429.82
1470,430.15
1471,431.455
1472,430.775
1473,431.225
1474,430.915
1475,432
1476,431.755
1477,431.74
1478,431.67
1479,431.305
1480,430.18
1481,430.92
1482,427.675
1483,428.685
1484,426.79
1485,426.255
1486,425.2
1487,424.165
1488,421.725
1489,421.67
1490,421.095
1491,419.995
1492,419.295
1493,418.07
1494,416.82
1495,416.46
1496,413.64
1497,413.43
1498,411.225
1499,411.495
1500,410.7
1501,408.655
1502,408.48
1503,408.285
1504,407.62
1505,406.655
1506,407.025
1507,406.235
1508,406.565
1509,408.28
1510,406.95
1511,407.32
1512,407.73
1513,408.8
1514,408.085
1515,408.775
1516,408.915
1517,409.2
1518,409.22
1519,409.225
1520,411.225
1521,413.11
1522,411.795
1523,412.035
1524,413.625
1525,413.835
1526,412.995
1527,414.205
1528,415.505
1529,415.04
1530,415.25
1531,416.82
1532,416.93
1533,417.47
1534,417.795
1535,416.45
1536,415.145
1537,416.635
1538,416.105
1539,416.435
1540,416.19
1541,416.845
1542,415.1
1543,414.595
1544,414.51
1545,414.145
1546,413.4
1547,413.46
1548,411.39
1549,413.35
1550,410.535
1551,410.95
1552,409.79
1553,409.215
1554,407.505
1555,407.675
1556,406.16
1557,404.415
1558,404.115
1559,403.895
1560,402.1
1561,402.235
1562,401.485
1563,401.955
1564,400.59
1565,399.74
1566,399.665
1567,398.58
1568,397.63
1569,397.485
1570,396.585
1571,397.205
1572,396.755
1573,396.44
1574,395.465
1575,395.065
1576,393.33
1577,393.54
1578,392.44
1579,393.01
1580,393.34
1581,393.695
1582,393.65
1583,392.635
1584,393.72
1585,393.28
1586,391.44
1587,392.785
1588,393.685
1589,393.03
1590,392.835
1591,392.77
1592,390.95
1593,390.875
1594,391.305
1595,391.265
1596,390.035
1597,390.855
1598,390.325
1599,390.285
1600,389.89
